Date,Open,High,Low,Close,Volume
2023-09-07 04:00:00,126.29,127.17,125.14,125.36,328552.0
2023-09-08 04:00:00,125.51,126.67,125.12,125.31,238788.0
2023-09-11 04:00:00,126.99,127.93,126.405,127.01,333524.0
2023-09-12 04:00:00,126.11,127.29,125.42,126.53,258007.0
2023-09-13 04:00:00,125.78,126.585,125.11,125.37,279312.0
2023-09-14 04:00:00,126.01,127.299,126.01,126.76,217859.0
2023-09-15 04:00:00,126.49,127.195,125.17,125.93,589390.0
2023-09-18 04:00:00,126.36,126.36,124.915,125.64,175188.0
2023-09-19 04:00:00,125.69,125.69,124.06,125.31,218739.0
2023-09-20 04:00:00,125.84,126.1,124.56,124.63,206240.0
2023-09-21 04:00:00,124.33,124.35,122.19,122.22,335704.0
2023-09-22 04:00:00,122.33,122.9,122.11,122.68,341156.0
2023-09-25 04:00:00,121.99,124.13,121.4713,124.04,258777.0
2023-09-26 04:00:00,123.53,124.215,123.23,123.6,547004.0
2023-09-27 04:00:00,124.04,124.45,122.87,123.52,362372.0
2023-09-28 04:00:00,123.86,125.64,123.26,125.47,219290.0
2023-09-29 04:00:00,126.49,126.83,124.79,125.04,330916.0
2023-10-02 04:00:00,124.53,125.48,123.985,125.05,244110.0
2023-10-03 04:00:00,124.02,125.31,122.49,122.87,236345.0
2023-10-04 04:00:00,123.55,124.66,122.33,124.23,208157.0
2023-10-05 04:00:00,123.96,124.93,122.795,123.75,466718.0
2023-10-06 04:00:00,123.61,126.69,123.39,126.41,491688.0
2023-10-09 04:00:00,125.82,127.22,125.69,126.94,275718.0
2023-10-10 04:00:00,127.24,128.61,126.51,126.54,322013.0
2023-10-11 04:00:00,127.53,127.7,126.645,127.53,212866.0
2023-10-12 04:00:00,127.22,127.3999,125.06,125.42,189279.0
2023-10-13 04:00:00,126.0,126.67,125.4,125.97,324917.0
2023-10-16 04:00:00,127.36,127.43,126.17,126.71,275211.0
2023-10-17 04:00:00,126.01,128.34,126.01,127.48,314395.0
2023-10-18 04:00:00,126.87,127.67,126.2825,126.78,287338.0
2023-10-19 04:00:00,126.08,127.47,125.39,125.73,443939.0
2023-10-20 04:00:00,125.93,126.48,121.93,122.22,446518.0
2023-10-23 04:00:00,121.72,123.16,121.21,121.5,379047.0
2023-10-24 04:00:00,122.13,123.77,121.72,123.34,312070.0
2023-10-25 04:00:00,122.43,123.78,121.89,122.37,431281.0
2023-10-26 04:00:00,121.26,125.39,121.26,123.43,576043.0
2023-10-27 04:00:00,123.47,123.84,120.36,121.17,364010.0
2023-10-30 04:00:00,121.92,122.32,120.85,122.17,283053.0
2023-10-31 04:00:00,122.51,122.89,121.831,122.27,422924.0
2023-11-01 04:00:00,122.11,123.425,121.605,122.93,360459.0
2023-11-02 04:00:00,123.72,124.29,122.98,123.58,384317.0
2023-11-03 04:00:00,124.43,125.974,124.43,125.35,278042.0
2023-11-06 05:00:00,125.27,125.73,124.75,125.19,173549.0
2023-11-07 05:00:00,124.62,124.99,124.17,124.55,205013.0
2023-11-08 05:00:00,124.88,125.49,124.41,125.12,175807.0
2023-11-09 05:00:00,125.69,125.69,124.07,124.39,118583.0
2023-11-10 05:00:00,124.24,125.79,123.89,125.72,195598.0
2023-11-13 05:00:00,125.39,125.48,124.37,124.53,183085.0
2023-11-14 05:00:00,125.95,127.86,125.31,127.85,267352.0
2023-11-15 05:00:00,127.82,128.8,127.35,127.71,388569.0
2023-11-16 05:00:00,127.65,128.615,126.84,127.55,216999.0
2023-11-17 05:00:00,128.56,129.08,127.61,127.93,162670.0
2023-11-20 05:00:00,127.45,127.6538,126.43,127.32,213932.0
2023-11-21 05:00:00,127.46,128.2964,127.2,127.91,160598.0
2023-11-22 05:00:00,128.45,129.2,127.36,128.57,174832.0
2023-11-24 05:00:00,128.97,128.97,128.1,128.53,65897.0
2023-11-27 05:00:00,127.82,128.3,126.85,127.0,367464.0
2023-11-28 05:00:00,127.0,127.01,125.49,125.61,218011.0
2023-11-29 05:00:00,125.64,126.4,124.915,125.37,331773.0
2023-11-30 05:00:00,125.45,127.125,124.81,126.89,300962.0
2023-12-01 05:00:00,126.42,128.535,126.42,128.1,218283.0
2023-12-04 05:00:00,127.45,128.88,126.89,128.42,191960.0
2023-12-05 05:00:00,128.25,128.69,125.88,125.99,178030.0
2023-12-06 05:00:00,126.39,127.3,125.8811,126.37,179521.0
2023-12-07 05:00:00,126.24,127.11,125.99,126.49,253952.0
2023-12-08 05:00:00,126.36,127.5,125.62,127.32,265821.0
2023-12-11 05:00:00,127.26,127.68,126.34,127.57,337976.0
2023-12-12 05:00:00,127.65,128.1,126.675,127.48,210306.0
2023-12-13 05:00:00,127.18,128.99,127.18,128.59,424977.0
2023-12-14 05:00:00,129.08,130.01,126.875,127.4,412923.0
2023-12-15 05:00:00,127.16,128.58,125.97,125.98,712996.0
2023-12-18 05:00:00,126.71,127.21,125.88,127.05,240485.0
2023-12-19 05:00:00,127.71,128.125,126.0305,126.23,659100.0
2023-12-20 05:00:00,126.02,126.94,125.46,125.57,346449.0
2023-12-21 05:00:00,126.24,126.24,124.85,125.91,421869.0
2023-12-22 05:00:00,126.4,127.0448,126.115,126.27,312238.0
2023-12-26 05:00:00,126.14,126.87,125.59,125.83,274692.0
2023-12-27 05:00:00,126.12,126.47,125.03,125.28,283123.0
2023-12-28 05:00:00,124.98,125.8,124.4,125.2,343618.0
2023-12-29 05:00:00,125.19,125.36,123.56,123.62,313527.0
2024-01-02 05:00:00,122.61,124.1,122.2935,122.88,313132.0
2024-01-03 05:00:00,125.15,127.26,123.15,125.36,531783.0
2024-01-04 05:00:00,125.18,125.92,124.13,124.22,353332.0
2024-01-05 05:00:00,123.78,124.37,122.99,124.2,422989.0
2024-01-08 05:00:00,124.07,125.155,122.37,124.35,352405.0
2024-01-09 05:00:00,123.71,124.635,122.97,124.63,250307.0
2024-01-10 05:00:00,124.46,125.42,124.23,125.19,279578.0
2024-01-11 05:00:00,125.38,126.97,124.94,126.84,323136.0
2024-01-12 05:00:00,127.89,127.97,125.92,126.43,231652.0
2024-01-16 05:00:00,125.88,126.82,125.51,126.81,257472.0
2024-01-17 05:00:00,125.94,127.27,125.89,126.69,336850.0
2024-01-18 05:00:00,127.32,130.005,126.31,129.14,444193.0
2024-01-19 05:00:00,129.71,131.46,128.535,130.8,417963.0
2024-01-22 05:00:00,130.9,131.805,130.56,131.19,266190.0
2024-01-23 05:00:00,131.8,131.85,130.33,131.83,217778.0
2024-01-24 05:00:00,132.12,132.285,130.54,130.78,294400.0
2024-01-25 05:00:00,132.03,132.38,130.38,131.25,332302.0
2024-01-26 05:00:00,131.68,132.59,131.4,131.7,219885.0
2024-01-29 05:00:00,131.05,132.5924,130.49,132.25,187791.0
2024-01-30 05:00:00,132.03,133.085,131.6331,132.25,228363.0
2024-01-31 05:00:00,132.37,132.77,129.16,129.88,537487.0
2024-02-01 05:00:00,130.46,131.11,129.61,130.5,298800.0
2024-02-02 05:00:00,129.96,130.71,128.6898,130.1,344843.0
2024-02-05 05:00:00,129.13,131.45,128.05,130.65,319530.0
2024-02-06 05:00:00,130.48,131.4,129.3,131.13,369692.0
2024-02-07 05:00:00,131.41,132.42,129.37,131.8,393013.0
2024-02-08 05:00:00,131.64,134.84,131.54,132.12,620725.0
2024-02-09 05:00:00,132.11,139.21,131.505,138.96,650944.0
2024-02-12 05:00:00,139.16,140.47,137.505,137.61,491253.0
2024-02-13 05:00:00,136.69,137.33,134.98,135.93,275877.0
2024-02-14 05:00:00,136.26,137.46,135.17,137.17,334958.0
2024-02-15 05:00:00,137.17,137.81,134.57,135.04,471417.0
2024-02-16 05:00:00,135.37,138.0,135.04,137.5,453937.0
2024-02-20 05:00:00,137.14,140.136,136.95,139.69,373046.0
2024-02-21 05:00:00,139.08,140.11,138.99,140.0,276273.0
2024-02-22 05:00:00,140.47,142.42,140.07,141.47,295737.0
2024-02-23 05:00:00,141.97,142.05,140.605,141.36,190330.0
2024-02-26 05:00:00,141.5,142.055,140.8,141.92,199254.0
2024-02-27 05:00:00,141.92,142.18,139.8,140.31,244595.0
2024-02-28 05:00:00,139.65,141.24,139.33,140.41,189620.0
2024-02-29 05:00:00,140.63,141.63,139.83,140.46,250582.0
2024-03-01 05:00:00,139.88,140.785,139.56,140.29,151373.0
2024-03-04 05:00:00,140.69,142.12,140.56,141.96,260259.0
2024-03-05 05:00:00,142.27,143.21,141.74,142.52,190208.0
2024-03-06 05:00:00,142.93,143.64,142.48,143.07,183984.0
2024-03-07 05:00:00,144.5,145.135,143.84,144.65,250091.0
2024-03-08 05:00:00,144.71,145.075,142.97,143.09,185255.0
2024-03-11 04:00:00,142.79,143.38,141.975,142.74,226663.0
2024-03-12 04:00:00,142.8,142.85,141.48,142.41,242199.0
2024-03-13 04:00:00,143.0,143.0,140.93,141.16,336764.0
2024-03-14 04:00:00,141.36,141.62,140.36,140.93,235213.0
2024-03-15 04:00:00,140.04,142.41,139.7412,141.0,599511.0
2024-03-18 04:00:00,140.93,141.3,138.93,139.26,299728.0
2024-03-19 04:00:00,138.88,140.315,138.88,139.51,253013.0
2024-03-20 04:00:00,139.63,140.07,139.14,139.97,219954.0
2024-03-21 04:00:00,140.31,141.6,139.2997,141.14,255837.0
2024-03-22 04:00:00,142.01,142.45,141.05,141.59,276019.0
2024-03-25 04:00:00,141.2,144.05,141.17,142.96,316320.0
2024-03-26 04:00:00,142.83,144.31,142.62,143.2,314251.0
2024-03-27 04:00:00,143.67,145.15,143.67,144.66,218170.0
2024-03-28 04:00:00,144.82,145.3523,143.65,143.89,247840.0
2024-04-01 04:00:00,143.79,143.79,142.12,142.29,204383.0
2024-04-02 04:00:00,141.84,141.84,140.39,140.63,202598.0
2024-04-03 04:00:00,140.67,141.19,139.87,140.88,258661.0
2024-04-04 04:00:00,141.83,142.75,140.97,141.75,403641.0
2024-04-05 04:00:00,141.38,142.765,140.9475,141.73,288272.0
2024-04-08 04:00:00,141.67,142.38,140.39,140.51,312526.0
2024-04-09 04:00:00,140.42,141.1,139.36,140.31,242589.0
2024-04-10 04:00:00,138.98,140.215,138.45,139.4,200711.0
2024-04-11 04:00:00,139.26,140.04,138.45,139.13,265323.0
2024-04-12 04:00:00,138.17,138.95,135.96,137.2,299234.0
2024-04-15 04:00:00,138.61,139.81,137.83,138.2,319558.0
2024-04-16 04:00:00,137.79,139.39,137.36,138.59,281692.0
2024-04-17 04:00:00,138.88,139.48,138.35,138.4,565361.0
2024-04-18 04:00:00,138.39,139.44,138.22,139.11,246574.0
2024-04-19 04:00:00,139.06,139.92,138.77,139.34,276582.0
2024-04-22 04:00:00,139.55,141.15,139.25,140.32,298792.0
2024-04-23 04:00:00,139.77,141.16,139.52,140.15,417184.0
2024-04-24 04:00:00,139.95,140.9,139.64,140.01,559220.0
2024-04-25 04:00:00,139.84,141.25,138.92,140.18,694402.0
2024-04-26 04:00:00,142.0,148.505,141.895,143.33,489509.0
2024-04-29 04:00:00,144.9,148.02,144.37,146.38,676652.0
2024-04-30 04:00:00,145.74,146.105,144.06,144.38,585121.0
2024-05-01 04:00:00,144.99,147.21,144.58,145.38,359575.0
2024-05-02 04:00:00,145.76,146.725,145.29,145.92,356539.0
2024-05-03 04:00:00,147.11,147.13,144.84,146.81,303324.0
2024-05-06 04:00:00,147.76,149.08,147.16,149.04,260199.0
2024-05-07 04:00:00,148.32,150.38,148.32,149.72,392912.0
2024-05-08 04:00:00,149.72,150.87,149.4755,150.79,223510.0
2024-05-09 04:00:00,151.0,151.73,148.63,149.08,299133.0
2024-05-10 04:00:00,148.95,149.0012,148.09,148.49,186303.0
2024-05-13 04:00:00,148.53,149.48,146.86,147.87,167458.0
2024-05-14 04:00:00,148.3,148.305,147.465,147.9,137623.0
2024-05-15 04:00:00,147.96,148.34,146.77,147.28,211112.0
2024-05-16 04:00:00,147.37,147.895,146.425,147.54,235527.0
2024-05-17 04:00:00,147.85,148.165,147.13,147.67,169494.0
2024-05-20 04:00:00,147.59,148.41,147.04,148.17,163388.0
2024-05-21 04:00:00,147.94,148.68,147.09,148.59,280401.0
2024-05-22 04:00:00,148.07,148.83,147.47,148.79,283258.0
2024-05-23 04:00:00,148.66,148.95,147.56,147.72,171707.0
2024-05-24 04:00:00,148.48,148.83,147.36,148.09,162320.0
2024-05-28 04:00:00,147.62,147.775,145.82,146.71,318431.0
2024-05-29 04:00:00,145.65,146.7,144.515,144.84,229680.0
2024-05-30 04:00:00,145.13,146.9779,145.0,146.14,328097.0
2024-05-31 04:00:00,146.09,147.83,145.92,147.69,358871.0
2024-06-03 04:00:00,148.5,148.5,146.03,148.16,266215.0
2024-06-04 04:00:00,147.65,148.39,146.7,148.19,287867.0
2024-06-05 04:00:00,147.72,148.2,147.08,147.92,229231.0
2024-06-06 04:00:00,148.01,148.01,145.4,145.96,197623.0
2024-06-07 04:00:00,145.77,146.33,145.45,145.55,179120.0
2024-06-10 04:00:00,144.83,145.81,143.99,145.59,125799.0
2024-06-11 04:00:00,144.91,145.74,144.35,145.5,147727.0
2024-06-12 04:00:00,146.24,146.31,144.07,145.83,221319.0
2024-06-13 04:00:00,145.89,146.53,145.02,145.83,232384.0
2024-06-14 04:00:00,145.09,145.38,143.6775,144.75,141531.0
2024-06-17 04:00:00,144.87,146.6799,144.57,146.33,303775.0
2024-06-18 04:00:00,146.48,147.69,146.47,146.69,219892.0
2024-06-20 04:00:00,146.66,147.53,145.67,145.81,199915.0
2024-06-21 04:00:00,145.87,147.135,145.31,146.85,444074.0
2024-06-24 04:00:00,147.22,148.23,146.67,146.72,182882.0
2024-06-25 04:00:00,146.79,146.8,144.5,144.86,194504.0
2024-06-26 04:00:00,144.25,144.785,142.96,143.71,192427.0
2024-06-27 04:00:00,143.87,143.88,142.27,143.87,377322.0
2024-06-28 04:00:00,143.78,144.32,140.09,140.81,435070.0
2024-07-01 04:00:00,141.38,141.48,138.39,138.54,306423.0
2024-07-02 04:00:00,138.48,140.5,137.76,140.4,259374.0
2024-07-03 04:00:00,140.88,141.4,140.57,141.22,143290.0
2024-07-05 04:00:00,140.99,141.435,139.73,140.9,206970.0
2024-07-08 04:00:00,141.65,142.5,141.5,141.51,249264.0
2024-07-09 04:00:00,140.86,141.27,139.75,140.04,238431.0
2024-07-10 04:00:00,140.75,141.63,140.57,141.29,142003.0
2024-07-11 04:00:00,141.2,143.3,140.75,142.09,244519.0
2024-07-12 04:00:00,143.41,145.49,143.41,144.59,263895.0
2024-07-15 04:00:00,144.76,145.69,143.14,143.43,319875.0
2024-07-16 04:00:00,143.85,145.3,143.85,144.56,178792.0
2024-07-17 04:00:00,144.34,145.7699,144.34,144.86,242285.0
2024-07-18 04:00:00,144.61,147.25,144.605,146.28,434172.0
2024-07-19 04:00:00,146.59,146.59,144.655,145.94,251235.0
2024-07-22 04:00:00,145.99,147.56,145.25,147.19,235688.0
2024-07-23 04:00:00,147.87,148.51,145.665,146.04,234547.0
2024-07-24 04:00:00,146.07,146.6275,143.9,144.14,250577.0
2024-07-25 04:00:00,142.83,144.05,141.22,141.49,558095.0
2024-07-26 04:00:00,143.13,151.29,142.355,146.66,562787.0
2024-07-29 04:00:00,146.58,148.355,145.17,147.8,390942.0
2024-07-30 04:00:00,147.38,147.9,145.405,145.75,411026.0
2024-07-31 04:00:00,146.5,148.85,145.41,146.98,280587.0
2024-08-01 04:00:00,146.88,149.5399,145.43,147.03,335307.0
2024-08-02 04:00:00,146.58,147.0,143.75,145.69,213450.0
2024-08-05 04:00:00,143.43,143.43,139.48,140.68,448532.0
2024-08-06 04:00:00,141.33,146.085,141.11,144.93,476046.0
2024-08-07 04:00:00,146.01,147.26,143.47,143.6,353634.0
2024-08-08 04:00:00,144.46,146.16,144.46,145.56,268614.0
2024-08-09 04:00:00,145.41,145.41,143.47,143.95,263240.0
2024-08-12 04:00:00,143.97,144.1807,142.77,143.29,221275.0
2024-08-13 04:00:00,143.51,145.3,143.1,144.37,212115.0
2024-08-14 04:00:00,144.13,144.81,143.49,143.9,115706.0
2024-08-15 04:00:00,145.0,147.34,145.0,147.01,277520.0
2024-08-16 04:00:00,146.11,146.84,145.61,146.72,250647.0
2024-08-19 04:00:00,146.32,147.73,145.92,146.97,191184.0
2024-08-20 04:00:00,146.98,148.31,146.98,148.11,387203.0
2024-08-21 04:00:00,148.17,149.575,147.46,149.33,267296.0
2024-08-22 04:00:00,149.57,150.4,148.67,148.99,200439.0
2024-08-23 04:00:00,149.66,150.53,149.4374,150.44,221443.0
2024-08-26 04:00:00,150.68,152.67,150.14,150.16,235517.0
2024-08-27 04:00:00,150.01,151.54,149.84,151.2,208270.0
2024-08-28 04:00:00,150.93,151.965,150.93,151.54,248964.0
2024-08-29 04:00:00,152.55,152.91,151.21,152.28,187083.0
2024-08-30 04:00:00,152.2,153.44,151.64,153.19,178473.0
2024-09-03 04:00:00,152.11,152.375,149.73,150.04,362364.0
2024-09-04 04:00:00,149.6,150.9,149.6,150.73,175836.0
2024-09-05 04:00:00,151.08,151.76,149.95,150.72,200644.0
2024-09-06 04:00:00,150.38,153.121,150.38,152.38,319137.0
2024-09-09 04:00:00,152.57,153.06,151.435,151.91,241501.0
2024-09-10 04:00:00,151.87,152.79,151.44,151.51,158060.0
2024-09-11 04:00:00,150.79,150.88,148.63,150.84,178025.0
2024-09-12 04:00:00,150.89,152.01,149.97,151.96,200432.0
2024-09-13 04:00:00,152.19,153.01,151.895,152.28,138618.0
2024-09-16 04:00:00,153.04,153.17,152.07,152.99,182901.0
2024-09-17 04:00:00,154.0,155.565,151.87,153.03,259948.0
2024-09-18 04:00:00,153.76,155.49,152.71,153.07,214216.0
2024-09-19 04:00:00,155.02,158.805,155.02,156.9,412361.0
2024-09-20 04:00:00,156.31,156.31,154.48,155.91,663306.0
2024-09-23 04:00:00,156.17,156.905,154.74,155.96,315802.0
2024-09-24 04:00:00,156.18,157.08,156.03,156.63,246154.0
2024-09-25 04:00:00,157.3,157.87,155.87,157.14,284138.0
2024-09-26 04:00:00,157.94,159.06,157.7,158.38,371630.0
2024-09-27 04:00:00,158.68,161.55,158.26,159.89,354288.0
2024-09-30 04:00:00,159.29,160.42,158.925,160.19,289783.0
2024-10-01 04:00:00,160.54,160.54,159.05,159.97,192217.0
2024-10-02 04:00:00,159.86,160.11,157.955,158.75,186859.0
2024-10-03 04:00:00,157.99,160.46,156.635,158.94,366992.0
2024-10-04 04:00:00,159.94,161.47,159.33,160.58,350508.0
2024-10-07 04:00:00,159.39,159.6355,158.01,158.69,223348.0
2024-10-08 04:00:00,158.28,159.02,157.1,158.67,205920.0
2024-10-09 04:00:00,158.35,160.0499,158.12,159.7,152611.0
2024-10-10 04:00:00,158.05,159.38,158.05,159.22,168527.0
2024-10-11 04:00:00,160.94,161.917,160.355,161.55,194364.0
2024-10-14 04:00:00,164.99,167.76,163.46,167.19,469784.0
2024-10-15 04:00:00,167.32,169.655,166.49,168.68,397252.0
2024-10-16 04:00:00,168.7,169.2,165.92,166.04,329983.0
2024-10-17 04:00:00,166.98,168.32,166.52,167.89,238180.0
2024-10-18 04:00:00,169.1,169.1,167.775,168.63,171511.0
2024-10-21 04:00:00,168.47,168.49,166.3,166.33,217915.0
2024-10-22 04:00:00,165.72,166.37,164.81,165.81,228467.0
2024-10-23 04:00:00,166.51,167.9804,166.155,167.65,318113.0
2024-10-24 04:00:00,168.32,168.33,166.145,166.55,547349.0
2024-10-25 04:00:00,168.92,169.845,164.61,168.91,518947.0
2024-10-28 04:00:00,169.9,171.41,168.76,169.1,349962.0
2024-10-29 04:00:00,169.03,169.49,167.64,168.7,338097.0
2024-10-30 04:00:00,168.35,170.2,168.12,169.03,290340.0
2024-10-31 04:00:00,169.09,170.28,167.86,167.91,329868.0
2024-11-01 04:00:00,168.1,170.99,167.62,169.41,316280.0
2024-11-04 05:00:00,169.63,170.57,168.18,168.26,191750.0
2024-11-05 05:00:00,167.74,170.36,167.74,170.31,206206.0
2024-11-06 05:00:00,175.15,175.15,172.14,173.16,264104.0
2024-11-07 05:00:00,174.2,175.46,173.54,174.71,412332.0
2024-11-08 05:00:00,174.7,177.835,174.485,175.76,309183.0
2024-11-11 05:00:00,176.32,178.03,175.9,176.15,189082.0
2024-11-12 05:00:00,176.65,177.24,174.95,175.7,179781.0
2024-11-13 05:00:00,175.5,176.39,175.045,175.5,168391.0
2024-11-14 05:00:00,175.15,175.79,173.905,174.1,198168.0
2024-11-15 05:00:00,172.97,173.76,166.17,166.49,620523.0
2024-11-18 05:00:00,166.39,167.82,164.33,166.69,384407.0
2024-11-19 05:00:00,166.42,167.67,166.195,166.9,287603.0
2024-11-20 05:00:00,167.0,168.9399,165.65,168.73,221802.0
2024-11-21 05:00:00,168.69,170.23,167.74,169.88,205056.0
2024-11-22 05:00:00,170.18,172.07,170.18,171.51,241648.0
2024-11-25 05:00:00,172.05,174.0223,171.74,172.5,270111.0
2024-11-26 05:00:00,172.86,172.86,171.16,172.04,140337.0
2024-11-27 05:00:00,172.67,173.88,171.52,171.73,167190.0
2024-11-29 05:00:00,172.59,173.49,172.09,172.96,117313.0
2024-12-02 05:00:00,172.98,173.11,170.835,172.76,170859.0
2024-12-03 05:00:00,173.45,173.45,171.09,172.4,160082.0
2024-12-04 05:00:00,171.89,172.89,171.025,172.59,173405.0
2024-12-05 05:00:00,172.01,172.44,170.53,171.1,244993.0
2024-12-06 05:00:00,171.6,172.65,170.85,171.15,209219.0
2024-12-09 05:00:00,171.56,173.465,170.23,170.79,301698.0
2024-12-10 05:00:00,170.72,171.37,168.19,170.91,287044.0
2024-12-11 05:00:00,171.88,174.1,171.745,172.31,418597.0
2024-12-12 05:00:00,171.67,172.6,170.78,171.64,178316.0
2024-12-13 05:00:00,170.91,171.0,169.82,170.2,153215.0
2024-12-16 05:00:00,170.14,170.9279,167.59,167.63,236090.0
2024-12-17 05:00:00,166.9,166.905,162.84,163.09,511945.0
2024-12-18 05:00:00,163.69,164.42,157.91,158.21,468597.0
2024-12-19 05:00:00,158.51,161.57,158.23,158.87,404719.0
2024-12-20 05:00:00,158.72,159.78,157.4705,158.18,730243.0
2024-12-23 05:00:00,157.17,158.9,156.96,158.52,194939.0
2024-12-24 05:00:00,158.78,159.42,157.92,159.35,100464.0
2024-12-26 05:00:00,158.42,159.63,158.42,158.85,164622.0
2024-12-27 05:00:00,157.82,159.58,157.61,158.15,145043.0
2024-12-30 05:00:00,157.0,157.49,155.0,156.73,221703.0
2024-12-31 05:00:00,157.28,158.25,156.18,157.1,317053.0
2025-01-02 05:00:00,157.65,158.11,153.45,154.16,239385.0
2025-01-03 05:00:00,154.04,155.715,152.87,155.5,250660.0
2025-01-06 05:00:00,154.0,154.64,151.44,152.92,369029.0
2025-01-07 05:00:00,155.92,156.06,152.6,153.43,361162.0
2025-01-08 05:00:00,152.89,154.26,152.09,154.15,228637.0
2025-01-10 05:00:00,152.72,154.3,152.58,153.45,350837.0
2025-01-13 05:00:00,152.93,154.7,152.93,153.89,349285.0
2025-01-14 05:00:00,154.81,155.4452,153.48,154.61,196911.0
2025-01-15 05:00:00,156.12,156.92,154.17,155.56,206137.0
2025-01-16 05:00:00,155.89,157.165,155.31,156.41,346317.0
2025-01-17 05:00:00,156.97,157.95,155.68,156.09,231872.0
2025-01-21 05:00:00,156.72,160.26,156.72,159.83,270874.0
2025-01-22 05:00:00,159.34,160.75,158.34,159.07,279989.0
2025-01-23 05:00:00,158.46,159.805,157.725,159.62,149812.0
2025-01-24 05:00:00,159.65,160.47,157.22,158.3,329584.0
2025-01-27 05:00:00,158.25,158.92,156.645,158.46,317046.0
2025-01-28 05:00:00,157.57,160.35,157.57,158.42,204250.0
2025-01-29 05:00:00,158.78,158.82,156.615,157.11,265785.0
2025-01-30 05:00:00,157.82,158.675,156.58,158.13,274219.0
2025-01-31 05:00:00,157.9,159.39,156.76,157.15,834143.0
2025-02-03 05:00:00,154.58,156.7468,154.14,155.98,364565.0
2025-02-04 05:00:00,156.09,158.46,156.09,157.7,302366.0
2025-02-05 05:00:00,158.28,159.66,157.78,158.32,262636.0
2025-02-06 05:00:00,159.84,159.84,155.37,156.45,446565.0
2025-02-07 05:00:00,157.62,157.9,142.04,143.18,1221538.0
2025-02-10 05:00:00,144.26,144.605,140.895,143.28,621928.0
2025-02-11 05:00:00,142.27,143.07,140.26,142.29,377346.0
2025-02-12 05:00:00,140.97,143.49,139.93,141.7,423520.0
2025-02-13 05:00:00,142.75,143.78,141.46,142.77,665887.0
2025-02-14 05:00:00,143.69,145.31,142.72,144.79,512842.0
2025-02-18 05:00:00,144.79,147.295,143.895,146.9,489600.0
2025-02-19 05:00:00,146.14,147.49,145.61,147.04,331002.0
2025-02-20 05:00:00,146.97,147.415,145.92,146.68,283106.0
2025-02-21 05:00:00,147.03,147.39,145.2,146.34,451851.0
2025-02-24 05:00:00,146.18,147.29,144.36,145.61,353284.0
2025-02-25 05:00:00,145.88,148.33,145.72,147.71,336735.0
2025-02-26 05:00:00,146.65,149.18,146.62,146.64,735632.0
2025-02-27 05:00:00,146.23,147.18,145.36,145.63,262813.0
2025-02-28 05:00:00,146.16,146.95,144.63,146.75,348660.0
2025-03-03 05:00:00,146.97,148.84,145.685,146.59,394119.0
2025-03-04 05:00:00,145.54,147.95,145.14,145.94,490119.0
2025-03-05 05:00:00,146.05,148.85,146.05,148.44,445078.0
2025-03-06 05:00:00,147.56,151.5,147.06,151.15,471738.0
2025-03-07 05:00:00,150.51,153.36,149.175,152.78,480214.0
2025-03-10 04:00:00,152.07,154.0,150.24,150.57,391055.0
2025-03-11 04:00:00,150.34,150.56,147.2656,147.89,304021.0
2025-03-12 04:00:00,148.24,148.24,145.56,146.03,299729.0
2025-03-13 04:00:00,146.41,147.2,143.76,144.76,238382.0
2025-03-14 04:00:00,145.23,146.89,144.5397,146.66,223585.0
2025-03-17 04:00:00,146.51,148.0,145.86,147.84,225203.0
2025-03-18 04:00:00,147.39,147.53,145.78,146.3,219932.0
2025-03-19 04:00:00,146.34,147.46,145.47,146.98,279662.0
2025-03-20 04:00:00,146.13,147.42,143.725,145.2,332777.0
2025-03-21 04:00:00,144.0,145.46,142.36,144.82,601908.0
2025-03-24 04:00:00,145.75,148.18,144.91,147.99,463787.0
2025-03-25 04:00:00,148.49,149.23,145.925,147.21,325226.0
2025-03-26 04:00:00,147.05,148.7,146.3,148.56,630399.0
2025-03-27 04:00:00,148.28,149.89,147.03,149.35,312676.0
2025-03-28 04:00:00,149.29,150.0,145.755,146.93,239805.0
2025-03-31 04:00:00,146.58,149.09,146.095,148.38,372528.0
2025-04-01 04:00:00,148.88,150.03,147.38,149.1,239988.0
2025-04-02 04:00:00,148.0,151.13,148.0,150.53,247555.0
2025-04-03 04:00:00,146.76,150.05,146.46,148.67,352876.0
2025-04-04 04:00:00,145.22,147.96,140.04,140.18,531626.0
2025-04-07 04:00:00,136.34,142.12,130.85,134.65,629909.0
2025-04-08 04:00:00,137.38,139.3075,131.28,133.66,473826.0
2025-04-09 04:00:00,133.18,144.42,131.32,143.75,491857.0
2025-04-10 04:00:00,140.0,143.37,137.57,140.76,308997.0
2025-04-11 04:00:00,140.87,144.71,139.7366,144.11,203037.0
2025-04-14 04:00:00,145.8,146.395,143.79,145.79,249303.0
2025-04-15 04:00:00,146.1,146.54,143.77,143.94,250675.0
2025-04-16 04:00:00,144.06,145.82,142.575,145.0,307681.0
2025-04-17 04:00:00,145.4,145.765,140.71,143.83,390605.0
2025-04-21 04:00:00,143.3,144.05,141.1,142.58,291626.0
2025-04-22 04:00:00,144.5,146.8242,143.59,146.02,217767.0
2025-04-23 04:00:00,147.87,149.32,147.22,148.05,536977.0
2025-04-24 04:00:00,147.93,152.0,145.4601,151.46,424550.0
2025-04-25 04:00:00,150.85,152.9999,147.57,149.06,220485.0
2025-04-28 04:00:00,149.8,151.03,148.28,149.7,235226.0
2025-04-29 04:00:00,149.76,151.98,149.01,150.3,359943.0
2025-04-30 04:00:00,149.07,149.99,147.21,149.95,556176.0
2025-05-01 04:00:00,148.45,150.53,146.96,148.28,445325.0
2025-05-02 04:00:00,152.99,153.0,147.785,152.0,431607.0
2025-05-05 04:00:00,151.43,153.215,150.878,151.48,267601.0
2025-05-06 04:00:00,150.25,152.04,149.415,150.92,311959.0
2025-05-07 04:00:00,151.88,153.145,150.62,151.39,318398.0
2025-05-08 04:00:00,151.79,154.575,151.24,153.36,302474.0
2025-05-09 04:00:00,153.91,154.3,152.94,153.32,231636.0
2025-05-12 04:00:00,155.79,156.59,153.7,155.52,352482.0
2025-05-13 04:00:00,156.31,156.31,153.2,153.64,339421.0
2025-05-14 04:00:00,153.62,153.62,150.97,152.48,350071.0
2025-05-15 04:00:00,152.35,155.48,152.35,154.95,278108.0
2025-05-16 04:00:00,155.18,157.15,154.59,157.01,278607.0
2025-05-19 04:00:00,156.36,158.34,156.31,158.08,185436.0
2025-05-20 04:00:00,160.26,160.26,157.905,158.53,388100.0
2025-05-21 04:00:00,156.86,157.647,155.83,156.45,319757.0
2025-05-22 04:00:00,156.36,157.265,155.56,156.65,278860.0
2025-05-23 04:00:00,155.12,156.18,154.255,155.94,260545.0
2025-05-27 04:00:00,157.03,158.44,156.685,158.16,352755.0
2025-05-28 04:00:00,158.16,158.84,157.255,157.4,364440.0
2025-05-29 04:00:00,157.83,158.67,156.8225,158.33,232087.0
2025-05-30 04:00:00,158.24,158.78,156.54,158.4,335104.0
2025-06-02 04:00:00,157.54,159.07,155.255,156.91,349586.0
2025-06-03 04:00:00,156.18,157.435,155.995,156.26,397776.0
2025-06-04 04:00:00,156.49,156.52,150.29,150.41,831919.0
2025-06-05 04:00:00,151.58,153.34,149.05,152.49,482377.0
2025-06-06 04:00:00,154.37,154.475,152.21,153.31,264715.0
2025-06-09 04:00:00,152.71,153.175,151.36,151.6,388353.0
2025-06-10 04:00:00,152.16,152.995,150.86,152.53,323524.0
2025-06-11 04:00:00,153.0,153.59,151.595,151.92,380818.0
2025-06-12 04:00:00,151.41,154.62,151.41,154.35,337231.0
2025-06-13 04:00:00,153.0,153.72,150.73,151.16,361176.0
2025-06-16 04:00:00,151.24,152.9,151.12,151.69,346150.0
2025-06-17 04:00:00,150.66,151.265,149.125,149.45,379733.0
2025-06-18 04:00:00,149.12,150.73,149.12,149.7,383173.0
2025-06-20 04:00:00,150.29,150.77,148.985,150.3,570491.0
2025-06-23 04:00:00,149.49,153.94,149.49,153.79,356518.0
2025-06-24 04:00:00,154.57,154.57,153.18,153.87,246573.0
2025-06-25 04:00:00,153.86,154.53,152.77,153.93,264690.0
2025-06-26 04:00:00,154.53,155.58,153.12,154.48,658225.0
2025-06-27 04:00:00,154.66,156.11,154.23,155.82,643145.0
2025-06-30 04:00:00,156.03,156.495,154.61,156.43,315502.0
2025-07-01 04:00:00,156.43,159.8,155.955,159.01,338399.0
2025-07-02 04:00:00,159.02,160.525,158.65,160.32,293509.0
2025-07-03 04:00:00,160.6,161.36,159.815,161.04,235097.0
2025-07-07 04:00:00,160.95,162.37,160.5461,160.96,313925.0
2025-07-08 04:00:00,160.9,162.58,159.855,160.05,342674.0
2025-07-09 04:00:00,159.93,160.0121,158.1,159.73,252796.0
2025-07-10 04:00:00,159.19,160.36,158.33,158.33,361583.0
2025-07-11 04:00:00,158.56,158.56,156.63,157.9,292046.0
2025-07-14 04:00:00,157.14,158.94,156.6858,157.56,276595.0
2025-07-15 04:00:00,157.74,157.996,154.07,154.16,254203.0
2025-07-16 04:00:00,153.92,155.61,153.5508,154.98,261877.0
2025-07-17 04:00:00,154.74,156.405,154.51,156.03,397671.0
2025-07-18 04:00:00,156.85,157.21,154.92,156.38,243092.0
2025-07-21 04:00:00,156.42,156.665,155.24,155.45,205939.0
2025-07-22 04:00:00,156.11,159.36,155.225,159.17,449890.0
2025-07-23 04:00:00,160.07,161.85,159.1362,161.66,450549.0
2025-07-24 04:00:00,160.96,164.28,159.79,161.82,431871.0
2025-07-25 04:00:00,162.05,163.09,160.78,160.99,296252.0
2025-07-28 04:00:00,161.2,161.98,158.16,158.7,308523.0
2025-07-29 04:00:00,159.05,159.6,157.22,158.82,388206.0
2025-07-30 04:00:00,158.8,158.93,154.92,156.79,580730.0
2025-07-31 04:00:00,155.78,157.35,155.18,157.14,679676.0
2025-08-01 04:00:00,156.97,158.12,141.09,141.35,1012362.0
2025-08-04 04:00:00,143.12,143.12,137.0815,139.13,838962.0
2025-08-05 04:00:00,139.34,141.07,137.69,140.22,540781.0
2025-08-06 04:00:00,140.31,140.76,137.55,138.54,515319.0
2025-08-07 04:00:00,139.8,141.49,138.914,140.49,564047.0
2025-08-08 04:00:00,140.69,142.05,140.58,140.75,428743.0
2025-08-11 04:00:00,141.33,141.615,139.2,139.87,349458.0
2025-08-12 04:00:00,140.22,141.09,139.23,139.48,286080.0
2025-08-13 04:00:00,139.69,141.44,139.25,141.43,729895.0
2025-08-14 04:00:00,140.19,140.19,136.44,138.34,875813.0
2025-08-15 04:00:00,138.36,138.95,137.87,138.72,770519.0
2025-08-18 04:00:00,138.89,139.57,137.35,137.89,529518.0
2025-08-19 04:00:00,138.27,140.52,138.27,139.59,333078.0
2025-08-20 04:00:00,139.91,141.25,139.26,141.18,519196.0
2025-08-21 04:00:00,140.63,141.9,140.24,140.64,270413.0
2025-08-22 04:00:00,141.26,143.33,141.19,141.43,356524.0
2025-08-25 04:00:00,140.97,141.609,138.96,139.56,245765.0
2025-08-26 04:00:00,139.07,140.16,138.015,139.71,442886.0
2025-08-27 04:00:00,139.09,140.57,139.03,139.44,729133.0
2025-08-28 04:00:00,140.17,140.17,137.4,138.89,320802.0
2025-08-29 04:00:00,139.17,139.87,138.345,139.27,370750.0
2025-09-02 04:00:00,137.42,138.525,136.17,136.41,310614.0
2025-09-03 04:00:00,136.08,136.175,134.44,135.22,382389.0
2025-09-04 04:00:00,136.345,138.48,135.045,138.46,401811.0
2025-09-05 04:00:00,139.02,140.82,137.625,138.62,440827.0
